# PACS_blue
# energy
# Herschel
       560224.    0.0107704
      561010.    0.0122982
      561798.    0.0137692
      562588.    0.0154111
      563380.    0.0172356
      564175.    0.0192913
      564972.    0.0214773
      565771.    0.0237674
      566572.    0.0262859
      567376.    0.0289762
      568182.    0.0318150
      568990.    0.0349463
      569801.    0.0382349
      570613.    0.0414930
      571429.    0.0449294
      572246.    0.0484849
      573066.    0.0518820
      573888.    0.0555246
      574713.    0.0594584
      575540.    0.0632925
      576369.    0.0673646
      577201.    0.0718924
      578035.    0.0764701
      578871.    0.0812408
      579710.    0.0858883
      580552.    0.0905109
      581395.    0.0954108
      582242.     0.100653
      583090.     0.106150
      583942.     0.112039
      584795.     0.117755
      585652.     0.123631
      586510.     0.129391
      587372.     0.135667
      588235.     0.142264
      589102.     0.148838
      589971.     0.155394
      590842.     0.161835
      591716.     0.168066
      592593.     0.174517
      593472.     0.181205
      594354.     0.188179
      595238.     0.195707
      596125.     0.203311
      597015.     0.210078
      597907.     0.217555
      598802.     0.225067
      599700.     0.232349
      600601.     0.239996
      601504.     0.247917
      602410.     0.255344
      603318.     0.262387
      604230.     0.269255
      605144.     0.275607
      606061.     0.281619
      606980.     0.287727
      607903.     0.293566
      608828.     0.298717
      609756.     0.303889
      610687.     0.308908
      611621.     0.313452
      612557.     0.318058
      613497.     0.322264
      614439.     0.325698
      615385.     0.329750
      616333.     0.334729
      617284.     0.339911
      618238.     0.345664
      619195.     0.352120
      620155.     0.358545
      621118.     0.365037
      622084.     0.371346
      623053.     0.378117
      624025.     0.384569
      625000.     0.390229
      625978.     0.394875
      626959.     0.399337
      627943.     0.404031
      628931.     0.408879
      629921.     0.413125
      630915.     0.416077
      631912.     0.417277
      632911.     0.421352
      633914.     0.429863
      634921.     0.438127
      635930.     0.444949
      636943.     0.451292
      637959.     0.457495
      638978.     0.463309
      640000.     0.469702
      641026.     0.476195
      642055.     0.481976
      643087.     0.488802
      644122.     0.495328
      645161.     0.499707
      646204.     0.503528
      647249.     0.507449
      648298.     0.510204
      649351.     0.512200
      650406.     0.513882
      651466.     0.514839
      652529.     0.516230
      653595.     0.517115
      654664.     0.516008
      655738.     0.514180
      656814.     0.513347
      657895.     0.512823
      658979.     0.512001
      660066.     0.511521
      661157.     0.511944
      662252.     0.512186
      663350.     0.511664
      664452.     0.512062
      665557.     0.513292
      666667.     0.515429
      667780.     0.516272
      668896.     0.514410
      670017.     0.511657
      671141.     0.509671
      672269.     0.508205
      673401.     0.507281
      674536.     0.506028
      675676.     0.503302
      676819.     0.499445
      677966.     0.495538
      679117.     0.491115
      680272.     0.486110
      681431.     0.481066
      682594.     0.475621
      683761.     0.469266
      684931.     0.463287
      686106.     0.457848
      687285.     0.452905
      688468.     0.449571
      689655.     0.447682
      690846.     0.446328
      692042.     0.446234
      693241.     0.447390
      694444.     0.448325
      695652.     0.448806
      696864.     0.450124
      698080.     0.450369
      699301.     0.449911
      700525.     0.449939
      701754.     0.449575
      702988.     0.448920
      704225.     0.449043
      705467.     0.449143
      706714.     0.449275
      707965.     0.450658
      709220.     0.452066
      710480.     0.453229
      711744.     0.456307
      713012.     0.459272
      714286.     0.461485
      715564.     0.463527
      716846.     0.465577
      718133.     0.466345
      719424.     0.466474
      720721.     0.467870
      722022.     0.468955
      723327.     0.469105
      724638.     0.469282
      725953.     0.468998
      727273.     0.468968
      728597.     0.470246
      729927.     0.471664
      731261.     0.473189
      732601.     0.475921
      733945.     0.478280
      735294.     0.479895
      736648.     0.482242
      738007.     0.484544
      739372.     0.486285
      740741.     0.488599
      742115.     0.490835
      743494.     0.492270
      744879.     0.494165
      746269.     0.496266
      747664.     0.497473
      749064.     0.498887
      750469.     0.500771
      751880.     0.501280
      753296.     0.500994
      754717.     0.501352
      756144.     0.501801
      757576.     0.500676
      759013.     0.499537
      760456.     0.498380
      761905.     0.496167
      763359.     0.493654
      764818.     0.490494
      766283.     0.487318
      767754.     0.484968
      769231.     0.482499
      770713.     0.478597
      772201.     0.474422
      773694.     0.468881
      775194.     0.460909
      776699.     0.452254
      778210.     0.443478
      779727.     0.433971
      781250.     0.425074
      782779.     0.417545
      784314.     0.410239
      785855.     0.403792
      787402.     0.399560
      788955.     0.396889
      790514.     0.396264
      792079.     0.395977
      793651.     0.394319
      795229.     0.391331
      796813.     0.388077
      798403.     0.383895
      800000.     0.378701
      801603.     0.373638
      803213.     0.368149
      804829.     0.361486
      806452.     0.354700
      808081.     0.347728
      809717.     0.339800
      811359.     0.331624
      813008.     0.323444
      814664.     0.314507
      816327.     0.305167
      817996.     0.295032
      819672.     0.283811
      821355.     0.273264
      823045.     0.263303
      824742.     0.252508
      826446.     0.241522
      828157.     0.230659
      829875.     0.219454
      831601.     0.208324
      833333.     0.198191
      835073.     0.188587
      836820.     0.178859
      838574.     0.169430
      840336.     0.160159
      842105.     0.151135
      843882.     0.142864
      845666.     0.135293
      847458.     0.128436
      849257.     0.122704
      851064.     0.117607
      852878.     0.112686
      854701.     0.108199
      856531.     0.103878
      858369.    0.0991543
      860215.    0.0947581
      862069.    0.0904282
      863931.    0.0858511
      865801.    0.0813514
      867679.    0.0769631
      869565.    0.0724506
      871460.    0.0680878
      873362.    0.0639159
      875274.    0.0597778
      877193.    0.0559078
      879121.    0.0523546
      881057.    0.0489104
      883002.    0.0456413
      884956.    0.0425896
      886918.    0.0396007
      888889.    0.0367519
      890869.    0.0341611
      892857.    0.0316947
      894855.    0.0293916
      896861.    0.0273798
      898876.    0.0256036
      900901.    0.0240779
      902935.    0.0228767
      904977.    0.0218528
      907029.    0.0208800
      909091.    0.0200895
      911162.    0.0194346
      913242.    0.0187906
      915332.    0.0182137
      917431.    0.0176881
      919540.    0.0171123
      921659.    0.0165513
      923788.    0.0160115
      925926.    0.0154149
      928074.    0.0148264
      930233.    0.0142700
      932401.    0.0136677
      934579.    0.0130406
      936768.    0.0124306
      938967.    0.0117918
      941176.    0.0111633
      943396.    0.0106094
      945626.    0.0100921
