# PACS_green
# energy
# Herschel
       796813.    0.0105813
      798403.    0.0114142
      800000.    0.0122284
      801603.    0.0148922
      803213.    0.0165573
      804829.    0.0180259
      806452.    0.0219115
      808081.    0.0254878
      809717.    0.0281046
      811359.    0.0329856
      813008.    0.0391302
      814664.    0.0450417
      816327.    0.0518642
      817996.    0.0589551
      819672.    0.0668480
      821355.    0.0767671
      823045.    0.0874425
      824742.     0.100780
      826446.     0.115714
      828157.     0.131404
      829875.     0.149148
      831601.     0.167954
      833333.     0.186327
      835073.     0.205672
      836820.     0.225335
      838574.     0.242845
      840336.     0.259589
      842105.     0.269478
      843882.     0.283383
      845666.     0.296556
      847458.     0.310720
      849257.     0.325314
      851064.     0.341531
      852878.     0.359379
      854701.     0.376443
      856531.     0.392817
      858369.     0.408650
      860215.     0.420221
      862069.     0.429624
      863931.     0.437686
      865801.     0.442078
      867679.     0.443654
      869565.     0.444661
      871460.     0.443947
      873362.     0.441489
      875274.     0.439453
      877193.     0.436985
      879121.     0.433433
      881057.     0.431011
      883002.     0.428992
      884956.     0.425648
      886918.     0.422882
      888889.     0.420483
      890869.     0.416628
      892857.     0.412423
      894855.     0.409785
      896861.     0.406396
      898876.     0.403976
      900901.     0.404834
      902935.     0.407556
      904977.     0.412733
      907029.     0.421293
      909091.     0.429533
      911162.     0.437935
      913242.     0.449141
      915332.     0.460351
      917431.     0.470352
      919540.     0.481688
      921659.     0.492609
      923788.     0.502153
      925926.     0.512986
      928074.     0.523493
      930233.     0.531692
      932401.     0.540633
      934579.     0.549775
      936768.     0.555764
      938967.     0.561068
      941176.     0.565942
      943396.     0.567452
      945626.     0.568157
      947867.     0.570508
      950119.     0.571616
      952381.     0.573019
      954654.     0.575780
      956938.     0.576367
      959233.     0.575739
      961538.     0.578610
      963855.     0.580246
      966184.     0.578966
      968523.     0.580038
      970874.     0.581219
      973236.     0.580184
      975610.     0.581172
      977995.     0.582526
      980392.     0.581595
      982801.     0.581921
      985222.     0.582167
      987654.     0.578952
      990099.     0.575169
      992556.     0.571108
      995025.     0.563640
      997506.     0.556846
  1.00000e+06     0.553627
  1.00251e+06     0.549269
  1.00503e+06     0.544147
  1.00756e+06     0.540431
  1.01010e+06     0.533981
  1.01266e+06     0.527844
  1.01523e+06     0.525945
  1.01781e+06     0.524405
  1.02041e+06     0.520724
  1.02302e+06     0.519074
  1.02564e+06     0.517688
  1.02828e+06     0.514608
  1.03093e+06     0.513931
  1.03359e+06     0.513783
  1.03627e+06     0.510802
  1.03896e+06     0.507169
  1.04167e+06     0.502256
  1.04439e+06     0.494410
  1.04712e+06     0.487835
  1.04987e+06     0.482584
  1.05263e+06     0.473372
  1.05541e+06     0.463719
  1.05820e+06     0.460195
  1.06101e+06     0.455217
  1.06383e+06     0.450775
  1.06667e+06     0.453501
  1.06952e+06     0.455920
  1.07239e+06     0.455619
  1.07527e+06     0.459141
  1.07817e+06     0.459018
  1.08108e+06     0.454029
  1.08401e+06     0.455200
  1.08696e+06     0.457686
  1.08992e+06     0.452013
  1.09290e+06     0.449778
  1.09589e+06     0.450995
  1.09890e+06     0.445150
  1.10193e+06     0.442953
  1.10497e+06     0.445748
  1.10803e+06     0.441609
  1.11111e+06     0.438610
  1.11421e+06     0.442069
  1.11732e+06     0.437672
  1.12045e+06     0.433324
  1.12360e+06     0.436091
  1.12676e+06     0.432658
  1.12994e+06     0.426907
  1.13314e+06     0.427058
  1.13636e+06     0.422077
  1.13960e+06     0.413699
  1.14286e+06     0.412088
  1.14613e+06     0.409175
  1.14943e+06     0.401063
  1.15274e+06     0.397287
  1.15607e+06     0.393540
  1.15942e+06     0.384306
  1.16279e+06     0.379174
  1.16618e+06     0.376256
  1.16959e+06     0.367713
  1.17302e+06     0.361588
  1.17647e+06     0.358322
  1.17994e+06     0.348840
  1.18343e+06     0.340148
  1.18694e+06     0.334940
  1.19048e+06     0.324309
  1.19403e+06     0.313222
  1.19760e+06     0.305625
  1.20120e+06     0.293588
  1.20482e+06     0.279905
  1.20846e+06     0.269006
  1.21212e+06     0.255196
  1.21581e+06     0.239686
  1.21951e+06     0.226569
  1.22324e+06     0.211424
  1.22699e+06     0.194123
  1.23077e+06     0.178874
  1.23457e+06     0.163280
  1.23839e+06     0.146036
  1.24224e+06     0.130748
  1.24611e+06     0.116502
  1.25000e+06     0.101429
  1.25392e+06    0.0876730
  1.25786e+06    0.0752222
  1.26183e+06    0.0630799
  1.26582e+06    0.0527140
  1.26984e+06    0.0439155
  1.27389e+06    0.0355836
  1.27796e+06    0.0284683
  1.28205e+06    0.0227364
  1.28617e+06    0.0176269
  1.29032e+06    0.0135389
  1.29450e+06    0.0107274
